 TITLE = "PR density_T" 

  VARIABLES = Temperature	PR_h_01	NIST_h_01	PR_h_1	NIST_h_1	PR_h_3	NIST_h_3	PR_h_5	NIST_h_5	PR_h_7	NIST_h_7	PR_h_10	NIST_h_10
220	442.3592389	442.23	74.79481183	86.832	73.19607274	87.933	72.64889721	88.52	72.42692044	88.823	72.07392459	89.443
230	450.0935943	450.07	95.29270585	106.59	92.59464593	107.37	91.6290014	107.82	91.22120815	108.06	90.53472049	108.56
240	457.9365329	457.99	445.701889	442.37	112.8617641	127.16	111.3239416	127.42	110.6686127	127.56	109.5471659	127.9
250	465.8865825	466	454.4092163	452.18	134.3036434	147.47	131.9444548	147.45	130.9467182	147.48	129.2406131	147.58
260	473.9421793	474.1	463.1407884	461.73	157.438426	168.6	153.8129757	168.17	152.3164036	168.01	149.7925338	167.78
270	482.1016955	482.29	471.908284	471.11	183.2893475	191.05	177.4720607	189.91	175.1913854	189.46	171.4591486	188.72
280	490.3634611	490.57	480.7204241	480.39	214.565141	215.9	203.9774724	213.35	200.3030626	212.37	194.6348307	210.78
290	498.7257803	498.95	489.583778	489.63	429.9420963	424.89	236.0076207	240.12	229.1894548	237.9	219.9804505	234.62
300	507.1869434	507.43	498.503314	498.84	445.6646761	445.95	289.2673909	278.44	266.4090805	269.96	248.7436055	261.8
310	515.7452377	516	507.4827878	508.05	459.6444614	462.41	417.0103078	423.31	360.08203	381.94	283.7151276	297.3
320	524.3989548	524.67	516.5250218	517.28	472.6370423	476.86	439.1381816	447.75	414.089216	427.93	331.7185074	362.9
330	533.1463966	533.43	525.6321114	526.54	484.9996465	490.17	456.6732005	466.29	438.3358433	451.85	385.4544265	414.73
340	541.9858804	542.29	534.8055788	535.84	496.9325079	502.74	472.1102569	482.28	457.1562979	470.6	419.3980273	443.38
350	550.9157424	551.23	544.0464905	545.18	508.5600685	514.81	486.3340079	496.81	473.5178327	486.89	443.3433109	464.86
360	559.9343408	560.27	553.3555475	554.58	519.9652499	526.53	499.7713713	510.42	488.4668095	501.74	462.9372337	483.02
370	569.0400581	569.39	562.7331564	564.02	531.206153	537.99	512.6638391	523.4	502.5035435	515.66	480.1801144	499.29
380	578.2313028	578.6	572.179485	573.53	542.3250559	549.25	525.1622261	535.91	515.9087628	528.92	495.9692461	514.33
390	587.5065108	587.89	581.6945065	583.09	553.3536396	560.36	537.3673394	548.08	528.8566215	541.7	510.7808282	528.53
400	596.8641461	597.27	591.2780356	592.72	564.3162041	571.37	549.3499839	559.99	541.4629007	554.13	524.8974837	542.11
410	606.3027019	606.73	600.9297575	602.41	575.2317424	582.3	561.1618009	571.7	553.8085705	566.28	538.5006172	555.22
420	615.8207008	616.26	610.6492512	612.15	586.1153304	593.18	572.8415839	583.27	565.9524829	578.22	551.7135634	567.99
430	625.4166949	625.88	620.4360092	621.97	596.9790871	604.01	584.4191732	594.71	577.9387291	590	564.623939	580.48
440	635.0892661	635.57	630.2894531	631.84	607.8328582	614.81	595.9179698	606.07	589.801156	601.65	577.2961678	592.75
450	644.8370259	645.34	640.2089474	641.78	618.6847118	625.61	607.3566207	617.35	601.5662683	613.2	589.7789493	604.85
460	654.6586154	655.18	650.19381	651.77	629.5413075	636.39	618.7501843	628.59	613.2551672	624.67	602.1099394	616.82
470	664.5527046	665.09	660.2433219	661.83	640.4081742	647.18	630.1109586	639.78	624.884886	636.08	614.3188066	628.67
480	674.5179925	675.07	670.3567344	671.96	651.2899236	657.98	641.4490828	650.96	636.4693363	647.44	626.4292984	640.44
490	684.5532063	685.13	680.5332758	682.14	662.1904163	668.79	652.7729843	662.11	648.0199938	658.78	638.460679	652.14
500	694.6571011	695.25	690.772157	692.38	673.112892	679.62	664.0897155	673.26	659.5464056	670.09	650.4287557	663.79
510	704.8284591	705.44	701.0725755	702.68	684.0600741	690.47	675.4052123	684.4	671.0565725	681.38	662.3466277	675.39
520	715.0660891	715.69	711.4337198	713.05	695.0342528	701.35	686.7244948	695.55	682.5572409	692.67	674.2252426	686.97
530	725.368826	726.01	721.8547722	723.47	706.037353	712.25	698.0518257	706.71	694.0541302	703.96	686.0738179	698.52
540	735.73553	736.39	732.3349118	733.94	717.0709898	723.18	709.3908358	717.88	705.55211	715.25	697.9001638	710.06
550	746.1650857	746.83	742.8733163	744.48	728.1365142	734.15	720.7446252	729.07	717.0553425	726.56	709.7109352	721.59
560	756.6564016	757.33	753.4691642	755.07	739.235051	745.14	732.1158456	740.27	728.5673954	737.87	721.5118295	733.12
570	767.2084091	767.89	764.121636	765.71	750.3675302	756.17	743.5067667	751.5	740.0913344	749.19	733.3077444	744.64
580	777.8200621	778.51	774.8299157	776.41	761.5347137	767.24	754.9193323	762.75	751.6297978	760.54	745.1029052	756.18
590	788.4903357	789.19	785.5931916	787.17	772.7372176	778.34	766.3552053	774.03	763.1850587	771.9	756.900967	767.72
600	799.2182257	799.93	796.4106569	797.97	783.9755308	789.47	777.8158065	785.33	774.7590762	783.29	768.7050994	779.27
610	810.0027476	810.72	807.2815108	808.83	795.2500317	800.64	789.3023465	796.66	786.3535381	794.7	780.5180561	790.84
620	820.8429361	821.56	818.2049583	819.74	806.5610014	811.85	800.8158529	808.02	797.9698963	806.13	792.3422317	802.43
630	831.7378436	832.46	829.1802107	830.7	817.9086355	823.1	812.357193	819.41	809.6093978	817.59	804.1797105	814.03
640	842.6865398	843.41	840.2064859	841.71	829.2930544	834.38	823.9270935	830.83	821.2731098	829.08	816.0323067	825.65
650	853.6881109	854.41	851.2830082	852.77	840.7143118	845.7	835.5261573	842.28	832.9619413	840.6	827.9015983	837.3
660	864.7416584	865.46	862.4090082	863.88	852.1724019	857.05	847.1548776	853.76	844.6766622	852.14	839.7889563	848.96
670	875.8462983	876.56	873.5837228	875.04	863.6672666	868.45	858.8136501	865.27	856.417919	863.71	851.6955689	860.65
680	887.0011602	887.71	884.806395	886.24	875.1988	879.88	870.5027841	876.81	868.1862484	875.31	863.622463	872.37
690	898.2053866	898.91	896.0762734	897.49	886.7668543	891.35	882.2225111	888.39	879.9820893	886.94	875.5705222	884.11
700	909.4581317	910.16	907.3926118	908.78	898.371243	902.85	893.9729931	900	891.805793	898.6	887.5405023	895.87
710	920.7585606	921.45	918.7546691	920.12	910.011745	914.39	905.754329	911.64	903.6576319	910.29	899.5330446	907.66
720	932.1058484	932.79	930.1617084	931.5	921.6881076	925.97	917.5665614	923.31	915.5378073	922.02	911.5486878	919.48
730	943.4991794	944.17	941.6129971	942.92	933.4000493	937.58	929.4096808	935.02	927.4464563	933.77	923.587878	931.32
740	954.9377458	955.59	953.1078056	954.39	945.1472615	949.23	941.2836309	946.76	939.3836572	945.55	935.6509776	943.19
750	966.4207473	967.06	964.6454072	965.9	956.9294113	960.91	953.188312	958.53	951.3494346	957.36	947.7382728	955.09
760	977.9473895	978.57	976.2250774	977.45	968.7461425	972.63	965.1235845	970.33	963.3437642	969.2	959.8499804	967.01
770	989.5168839	990.12	987.8460931	989.04	980.5970773	984.38	977.0892721	982.16	975.3665763	981.08	971.9862535	978.96
780	1001.128446	1001.7	999.5077322	1000.7	992.4818173	996.17	989.0851641	994.03	987.4177591	992.98	984.1471868	990.94
790	1012.781294	1013.4	1011.209273	1012.3	1004.399945	1008	1001.111017	1005.9	999.4971618	1004.9	996.3328209	1002.9
800	1024.474651	1025	1022.949992	1024	1016.351023	1019.8	1013.166559	1017.8	1011.604597	1016.9	1008.543146	1015
