TITLE = "decane alpha" 

VARIABLES = temp	PR_liq_alpha_01MPa	PR_liq_alpha_1MPa	PR_liq_alpha_2MPa	PR_liq_alpha_4MPa	PR_liq_alpha_5MPa	PR_liq_alpha_7MPa	PR_liq_alpha_8MPa	PR_liq_alpha_10MPa
350	2.31191276	2.329304466	2.349446202	2.391862032	2.413777154	2.460816144	2.485216416	2.536971442
351	2.294665588	2.311716501	2.331121665	2.37232826	2.394152176	2.439543881	2.463472207	2.51384245
352	2.277528678	2.294237284	2.313230127	2.353262306	2.374646527	2.41878878	2.442257127	2.49128481
353	2.261079649	2.277166694	2.295756975	2.334975089	2.355603334	2.398532634	2.421552489	2.469277956
354	2.244725831	2.260781196	2.278688248	2.316790709	2.33700681	2.379112176	2.400974449	2.447802296
355	2.229023158	2.244482133	2.2620106	2.299342557	2.318841874	2.359795567	2.381245391	2.426839156
356	2.213402205	2.228552869	2.245711268	2.281981801	2.30109412	2.340928395	2.361975501	2.40637073
357	2.198398497	2.212981508	2.229778039	2.265015647	2.283749778	2.322495543	2.343149294	2.386380025
358	2.183464401	2.197756659	2.214199221	2.248431252	2.266489063	2.304809792	2.324751976	2.366490181
359	2.168860068	2.182867411	2.198690861	2.232507548	2.249918326	2.28719666	2.30643784	2.347413966
360	2.154826747	2.168303308	2.183792686	2.216644946	2.233712987	2.269976574	2.288862722	2.328768721
361	2.140847099	2.154054327	2.169216565	2.201128929	2.217861497	2.253136883	2.271675685	2.310540295
362	2.127167827	2.14011085	2.154694356	2.185948685	2.20235279	2.236665473	2.254864342	2.29271515
363	2.113779878	2.12621808	2.140737693	2.17109385	2.186896698	2.22055074	2.238109182	2.275280325
364	2.100674558	2.112862555	2.12682526	2.156554483	2.17204709	2.204781561	2.222019645	2.258223411
365	2.087843518	2.099548697	2.113451212	2.142321044	2.157509576	2.189347274	2.206271506	2.241532519
366	2.075052406	2.08674661	2.100112676	2.128127593	2.143009665	2.174237649	2.190562821	2.224885947
367	2.062749969	2.073978042	2.087050559	2.114483273	2.129073132	2.15944287	2.175471601	2.208898843
368	2.050698562	2.061697542	2.074256794	2.101118357	2.115165416	2.144953515	2.16041007	2.193244798
369	2.038675863	2.049443206	2.061723631	2.088024728	2.101794788	2.130492388	2.145936684	2.177913758
370	2.026897253	2.037436901	2.049668696	2.074954642	2.088445068	2.11659157	2.131484212	2.162606767
371	2.015564041	2.025671619	2.037409564	2.062384381	2.07536439	2.102969945	2.117325199	2.147898021
372	2.004249856	2.014140616	2.025614583	2.049830607	2.062545046	2.08961948	2.103714044	2.133484307
373	1.993159962	2.002837399	2.014052024	2.037754393	2.050215307	2.076281605	2.090112239	2.119082033
374	1.982288209	1.991755714	2.002715485	2.025688298	2.037892877	2.06345459	2.077033771	2.105237505
375	1.971628676	1.980889534	1.991598799	2.014078966	2.025810454	2.050876307	2.063957917	2.091663176
376	1.961175652	1.970233052	1.980491615	2.002474003	2.013961414	2.038300833	2.051136036	2.07808953
377	1.950923631	1.959585777	1.96980015	1.991091945	2.002339377	2.026203308	2.038561057	2.065037155
378	1.940867304	1.949335047	1.95911309	1.979926767	1.990938195	2.014102851	2.026226164	2.051979164
379	1.930817971	1.93908873	1.948824423	1.968972661	1.979751939	2.002232049	2.014359902	2.039420052
380	1.921140581	1.92922261	1.938535547	1.958224024	1.968774891	1.990809263	2.002482132	2.026849653
381	1.911465855	1.919356561	1.928439449	1.947675453	1.958001536	1.979375953	1.990825545	2.014757177
382	1.901972564	1.90967469	1.918531132	1.937321731	1.947221592	1.968154402	1.979384256	2.002648307
383	1.892828958	1.90017228	1.908805768	1.927157822	1.936842839	1.957353705	1.968152584	1.990762798
384	1.883682253	1.890844771	1.899258696	1.917178863	1.926652283	1.946535977	1.957125048	1.979326147
385	1.874703591	1.88168776	1.88988541	1.907190034	1.916449008	1.935913928	1.946296356	1.967866358
386	1.865888783	1.87269699	1.88068156	1.89756975	1.906623425	1.925482535	1.935449645	1.95661283
387	1.857070633	1.863868346	1.871642937	1.888120728	1.896781514	1.915236949	1.925006503	1.945781727
388	1.848573822	1.85519785	1.862594452	1.878656583	1.887114879	1.905172482	1.914747317	1.934921722
389	1.840229064	1.846518338	1.853876588	1.869360445	1.877804379	1.895284603	1.904667478	1.924252582
390	1.831876311	1.837993937	1.845145797	1.860405257	1.868472762	1.885568933	1.894562479	1.913769489
391	1.823672723	1.829779686	1.836733246	1.851430399	1.859303805	1.876021235	1.884830862	1.903467791
392	1.815766813	1.821552171	1.82830499	1.842611581	1.850293555	1.866637411	1.875071015	1.893342987
393	1.807848863	1.813468903	1.820023719	1.833945049	1.841438186	1.857227206	1.865670692	1.883390723
394	1.800069735	1.80552647	1.811885946	1.82542717	1.832733993	1.84816185	1.85623937	1.873606789
395	1.792426184	1.797721573	1.803888296	1.817054428	1.824177392	1.839067467	1.847154497	1.863987109
396	1.78477101	1.790051014	1.796027499	1.808823415	1.815764909	1.830305491	1.838036126	1.854527739
397	1.777391174	1.782365282	1.788300387	1.800730831	1.807327013	1.821688679	1.829251852	1.845224858
398	1.769997463	1.774956108	1.780554644	1.792773479	1.799194929	1.813039351	1.82043183	1.836074769
399	1.762869364	1.767529614	1.773087715	1.784791312	1.791197135	1.804533033	1.811756951	1.827073888
400	1.755725344	1.760370016	1.765600094	1.777097219	1.783170748	1.796336237	1.803223846	1.818033156
401	1.748702863	1.75319115	1.758381642	1.76937634	1.775434456	1.788103925	1.794829248	1.809322731
402	1.7417992	1.746132853	1.75114063	1.76193368	1.7676677	1.780005024	1.78656999	1.800751362
403	1.735011719	1.73919244	1.744019718	1.754462451	1.760027382	1.77203651	1.778443001	1.792137241
404	1.72833786	1.732367306	1.737016242	1.747112833	1.752510671	1.764195452	1.770445302	1.783836798
405	1.721647014	1.725522892	1.730127619	1.739882129	1.745114822	1.756479006	1.762574003	1.775666163
406	1.715194615	1.718922448	1.723216602	1.732767727	1.737837168	1.748884412	1.754826302	1.767450305
407	1.708723626	1.712301119	1.716551882	1.725767086	1.730675123	1.741408992	1.747199475	1.759362736
408	1.702359803	1.70578853	1.709994672	1.718877743	1.723626175	1.734050144	1.739532468	1.751568593
409	1.696100848	1.699507957	1.703412823	1.711958832	1.716687887	1.726805344	1.732141423	1.743727126
410	1.68994453	1.693204366	1.696937092	1.705286623	1.709857888	1.719522034	1.724863517	1.736005694
411	1.683769777	1.687002726	1.69056522	1.698718702	1.702994369	1.7124998	1.717543476	1.728563782
412	1.677813722	1.680779778	1.684295012	1.692119279	1.696375742	1.705437833	1.710486427	1.721072776
413	1.671837907	1.67477711	1.678124336	1.68562295	1.689722407	1.698628766	1.703386107	1.713694243
414	1.665959165	1.668751871	1.67205112	1.679227551	1.683171666	1.691778869	1.696393044	1.706425791
415	1.660175481	1.662939961	1.666073348	1.673059939	1.67685448	1.685032516	1.689650882	1.699265098
416	1.6544849	1.657104337	1.660069642	1.666858663	1.670501023	1.678527507	1.682863964	1.692209903
417	1.648885518	1.651361302	1.654278313	1.660626194	1.664243933	1.671980235	1.676177749	1.685258011
418	1.643375487	1.645708969	1.648460009	1.65461406	1.658081237	1.665530234	1.669590161	1.678407286
419	1.637844962	1.640034029	1.642732273	1.648692908	1.652011017	1.659175517	1.66309918	1.67165565
420	1.632402742	1.634558927	1.637093276	1.642739121	1.645905663	1.652914149	1.656702842	1.665001082
421	1.627047056	1.629060223	1.631541242	1.636995841	1.640016237	1.646744249	1.650399235	1.658296893
422	1.621776179	1.623755315	1.626074441	1.631219086	1.634090842	1.6405331	1.644051581	1.651832175
423	1.616588434	1.618425907	1.620580992	1.62552888	1.628375036	1.634542107	1.637929358	1.645458755
424	1.611380231	1.61317926	1.615280872	1.619923509	1.622622516	1.628637208	1.631894406	1.639034711
425	1.606355043	1.607909677	1.609953286	1.614401306	1.616954548	1.622690015	1.625814391	1.632839969
426	1.601308531	1.60282489	1.604706813	1.608960647	1.611487176	1.616828281	1.619950252	1.626594038
427	1.596341085	1.597716341	1.599539876	1.603599948	1.605982121	1.611174333	1.614040473	1.62057099
428	1.591353752	1.592787181	1.594450941	1.598317672	1.600441595	1.605477222	1.608340536	1.614496262
429	1.58654098	1.587833517	1.589335419	1.593001996	1.595095685	1.599860695	1.602594454	1.608505353
430	1.581707528	1.582955633	1.58439915	1.587873261	1.589826458	1.594323204	1.596928522	1.60259664
431	1.576949354	1.578054735	1.579435617	1.582710539	1.584520866	1.58886324	1.591341205	1.596898765
432	1.572265032	1.573325185	1.574546474	1.577622703	1.579401835	1.583479331	1.585831008	1.591148426
433	1.567653169	1.568571935	1.569730315	1.572608338	1.574245924	1.578170044	1.580396473	1.585475685
434	1.563112409	1.563890956	1.564985774	1.56766607	1.569163321	1.572933982	1.575036178	1.57987908
435	1.558551284	1.559280896	1.560311518	1.562691005	1.564259706	1.567655626	1.569748738	1.574357181
436	1.554060604	1.554740439	1.555610634	1.557889998	1.559318551	1.562563094	1.564416216	1.568784746
437	1.549639064	1.550268303	1.551074079	1.553157142	1.554341828	1.557427896	1.559271612	1.56340933
438	1.545285392	1.545772973	1.546510366	1.548390788	1.549539089	1.552473631	1.554081595	1.558104526
439	1.540912037	1.541345397	1.542013853	1.543692158	1.544803138	1.547476378	1.549074604	1.552748773
440	1.536605946	1.536984334	1.537583317	1.539060018	1.540031004	1.542546762	1.544021921	1.547582499
441	1.532365892	1.532688581	1.53312683	1.534493163	1.53542603	1.537683555	1.539147575	1.542483036
442	1.528190681	1.528456958	1.528825626	1.529990419	1.530784528	1.532885558	1.534227302	1.537332318
443	1.524079149	1.524202699	1.524498006	1.525455185	1.526207084	1.528151603	1.529371986	1.53224824
444	1.519948343	1.520012076	1.520233554	1.52107819	1.521692553	1.523480549	1.524580467	1.52734427
445	1.515880686	1.515883951	1.516031143	1.516668353	1.517239818	1.518767809	1.51985161	1.522388831
446	1.511875056	1.511817218	1.511803483	1.512320018	1.512847788	1.514220213	1.515078496	1.517496539
447	1.572159994	1.507728663	1.507722754	1.508032101	1.508420409	1.509630715	1.510472651	1.512666276
448	1.566072491	1.503701041	1.50361637	1.503803541	1.504147525	1.505202265	1.505926208	1.507896953
449	1.560092115	1.499733281	1.499569462	1.499633304	1.499839031	1.500731733	1.501335244	1.503187506
450	1.554226369	1.495824339	1.495580993	1.495431273	1.49558888	1.496319606	1.49690547	1.498536895
451	1.5479719	1.491973194	1.491649952	1.491375527	1.491396063	1.491964875	1.492431045	1.493944102
452	1.54235373	1.488100821	1.487694201	1.48728772	1.487259592	1.487666551	1.488013852	1.489301575
453	1.536353054	1.484285845	1.483875869	1.483255979	1.483178503	1.483423671	1.483752092	1.484822406
454	1.530488754	1.48052728	1.480032492	1.479279347	1.479062989	1.479140156	1.479445543	1.480398131
455	1.524768856	1.476824164	1.476165489	1.475356887	1.47509068	1.475006211	1.475193358	1.475924055
456	1.519201494	1.473100616	1.472432241	1.47140354	1.471083752	1.470831508	1.470898071	1.471504849
457	1.513794908	1.469432147	1.468675038	1.467587486	1.467130154	1.466802845	1.466752732	1.467241541
458	1.508013493	1.465817826	1.465048217	1.463740329	1.463228989	1.462733328	1.46265905	1.462928427
459	1.502400119	1.462184024	1.46139715	1.459945326	1.459379383	1.458715503	1.458522152	1.458667473
460	1.496963324	1.458676006	1.457723175	1.456201607	1.455580478	1.45474851	1.454530047	1.454457812
461	1.491711749	1.455148165	1.454176185	1.452508324	1.451831438	1.45083151	1.45049468	1.450298594
462	1.486090936	1.451672342	1.450606	1.448785078	1.448048882	1.446875112	1.44650923	1.44618899
463	1.480663259	1.448177783	1.447086781	1.44511208	1.444316052	1.443056416	1.442572876	1.442128186
464	1.475437651	1.444734909	1.443617688	1.441566618	1.440632132	1.439198256	1.438684816	1.438115388
465	1.470423145	1.441342866	1.440126409	1.437913541	1.436996324	1.435474673	1.434844265	1.434054567
466	1.465046155	1.438000821	1.436684991	1.434386402	1.433407848	1.431711581	1.431050454	1.430136247
467	1.459888832	1.434640768	1.43329262	1.430906313	1.429787001	1.427995246	1.427302633	1.426169951
468	1.45436787	1.431330407	1.4299485	1.427397191	1.426291608	1.424324914	1.423513042	1.422343082
469	1.449075402	1.428068931	1.426651852	1.423934972	1.422763736	1.420699849	1.419855728	1.418468304
470	1.444020941	1.424790302	1.423333741	1.420518901	1.419281581	1.417119331	1.416156651	1.41463857
471	1.439214092	1.421560259	1.420062871	1.417148243	1.415844414	1.413500676	1.412502112	1.410943843
472	1.434051941	1.418378021	1.416771588	1.413822278	1.412451523	1.410007832	1.408891405	1.407201336
473	1.429146876	1.415179454	1.413593574	1.41046827	1.409027317	1.406476835	1.405323839	1.403501779
474	1.42388604	1.412091156	1.410394919	1.407158827	1.40572154	1.402988974	1.401798738	1.399755972
475	1.41889203	1.4089241	1.407241788	1.403893246	1.402384367	1.399543573	1.398315439	1.396141007
476	1.414174919	1.405865818	1.404069026	1.40067084	1.399090011	1.39613997	1.394873294	1.392567006
477	1.409106811	1.402791864	1.400941563	1.397490936	1.395837804	1.392777516	1.391390854	1.389033336
478	1.404325796	1.399763657	1.397858687	1.39428395	1.392555353	1.389378222	1.387949602	1.385453585
479	1.399842216	1.396720683	1.394819701	1.391119358	1.389386104	1.386096799	1.384628421	1.381914264
480	1.395012995	1.39372318	1.391761842	1.387996503	1.386186543	1.382778543	1.381267014	1.378499218
481	1.390491851	1.390770439	1.388747664	1.384847599	1.383027773	1.379500188	1.377944932	1.375038254
482	1.385625478	1.387803669	1.385776492	1.38180688	1.379909169	1.376261121	1.374661576	1.371615899
483	1.381078091	1.384881393	1.382787281	1.378740009	1.376761352	1.373060747	1.371339316	1.368231568
484	1.376186059	1.381945935	1.37984087	1.375713504	1.373721827	1.369898481	1.36813226	1.364884686
485	1.371624193	1.379111136	1.376936602	1.37272675	1.370653033	1.366773747	1.364962196	1.36157469
486	1.367403464	1.376206992	1.374073834	1.369714835	1.36762314	1.363613447	1.361753306	1.358301028
487	1.362844646	1.37340216	1.371193735	1.366742574	1.364631561	1.360490705	1.35858147	1.354983051
488	1.357942936	1.370584704	1.368297278	1.363809369	1.36161176	1.357476361	1.355446134	1.351781035
489	1.35339455	1.367755549	1.365499698	1.360914633	1.358695638	1.354355659	1.352346753	1.348534824
490	1.349210818	1.3649694	1.362685563	1.358057793	1.355751248	1.35134226	1.349282797	1.345402342
491	1.344691376	1.362225605	1.359855817	1.355176651	1.352843991	1.348364235	1.346253742	1.342225793
492	1.340548742	1.359470748	1.357122567	1.352333322	1.349973317	1.345351854	1.343187192	1.339083594
493	1.336071889	1.356757982	1.354373511	1.349527245	1.347075376	1.342443554	1.340226951	1.335975243
494	1.331984262	1.354034903	1.351609565	1.346697777	1.34427677	1.339500937	1.337229285	1.332900244
495	1.327564092	1.351353647	1.348885715	1.343905476	1.341450861	1.336592702	1.334265575	1.329858115
496	1.322806771	1.348662805	1.346201363	1.341149794	1.338660431	1.333718348	1.331335328	1.326773357
497	1.318452302	1.346013515	1.343555925	1.338430194	1.335843671	1.330810777	1.328438057	1.323796077
498	1.314512715	1.343355345	1.340843568	1.335688037	1.333123147	1.328003222	1.325504556	1.320850259
499	1.310244434	1.340738451	1.338223043	1.332981883	1.330376258	1.325162488	1.322672325	1.317862008
500	1.306404248	1.338162223	1.335588993	1.330311206	1.327663789	1.322354701	1.319803934	1.314905354
501	1.302237604	1.335529275	1.332993472	1.327675493	1.324925889	1.319579387	1.317034885	1.311979845
502	1.297740069	1.332985581	1.330385172	1.325018027	1.32228125	1.316836081	1.314229758	1.309085037
503	1.293685329	1.330434222	1.327815203	1.322395449	1.319611146	1.314124328	1.311455833	1.306220495
504	1.290085916	1.327875985	1.325283006	1.31975197	1.316974445	1.311380482	1.308646877	1.303385789
505	1.286165032	1.325311642	1.322738657	1.317198126	1.314313175	1.308668233	1.305934505	1.300580501
506	1.281918365	1.322834149	1.320182961	1.314623302	1.31174231	1.306049402	1.303187176	1.297804217
507	1.278142436	1.320304614	1.317665188	1.312028357	1.309146843	1.30333674	1.300534629	1.294987041
508	1.27404354	1.31781554	1.315184788	1.309521128	1.306583803	1.300716625	1.297847205	1.292199005
509	1.270429748	1.315321568	1.312693623	1.306993699	1.304052732	1.298126363	1.295189335	1.289508255
510	1.266496001	1.312867758	1.310239629	1.304446902	1.3014979	1.295505064	1.292560605	1.286776821
511	1.262238067	1.310409631	1.307775534	1.301985948	1.298975006	1.292913666	1.289898021	1.28407333
512	1.258481479	1.307991367	1.305302091	1.299505544	1.2964836	1.290351753	1.2873268	1.281397394
513	1.254403918	1.30552631	1.302865928	1.29705785	1.293969245	1.287818914	1.284721801	1.278748635
514	1.250842707	1.303101665	1.300466513	1.29459147	1.29153992	1.285255999	1.282145215	1.276060368
515	1.246963934	1.300716848	1.29805827	1.292157716	1.289087614	1.282780529	1.279596649	1.273465281
516	1.243616759	1.298287735	1.295686561	1.28975613	1.28661314	1.280275029	1.277075718	1.270830818
517	1.239955632	1.295898969	1.293262407	1.287336559	1.284221989	1.277797853	1.274582043	1.26828794
518	1.235976486	1.293549969	1.290919202	1.28494907	1.281808633	1.275348613	1.272115254	1.265705824
519	1.232546355	1.291159093	1.288568376	1.282593219	1.279425407	1.272870234	1.269615768	1.263149559
520	1.228802026	1.288808474	1.286210621	1.280220056	1.277020742	1.270476123	1.267143246	1.260618793
521	1.22473946	1.286457811	1.283889241	1.277878444	1.274646167	1.268052918	1.26469732	1.258113184
522	1.221243811	1.284107742	1.281561496	1.275567947	1.272301267	1.265656937	1.262277631	1.255569428
523	1.217433963	1.281758892	1.279228055	1.27324079	1.269985637	1.263232691	1.259826197	1.253113516
524	1.214207275	1.279450403	1.276931023	1.270897698	1.267649271	1.260890437	1.257458308	1.250619586
525	1.210670625	1.277105441	1.274628829	1.268632547	1.265342137	1.258519958	1.255058748	1.248212042
526	1.206820083	1.274801263	1.272322122	1.266351365	1.263063837	1.256176009	1.252684794	1.245766613
527	1.203571424	1.272499942	1.27005183	1.264054854	1.260765496	1.253858234	1.250336103	1.243345143
528	1.20001333	1.270202068	1.267777529	1.261789172	1.258495946	1.251566282	1.248012337	1.240947313
529	1.197073963	1.267908222	1.265539386	1.259553901	1.2562548	1.249246935	1.245713163	1.238572808
530	1.192891575	1.265618977	1.26325856	1.257303886	1.253994281	1.246953448	1.243383254	1.236161436
531	1.189332594	1.263334898	1.261014371	1.255084179	1.25176212	1.244685477	1.241078009	1.233833026
532	1.186411915	1.261056541	1.258806309	1.252894369	1.249511257	1.242442681	1.238797101	1.231467873
533	1.183187467	1.258749412	1.25655775	1.250690382	1.247335024	1.240173284	1.236540207	1.229184348
534	1.179655486	1.256484514	1.254345772	1.248472872	1.245140039	1.23798019	1.234307011	1.226864204
535	1.176781808	1.254226959	1.252132535	1.246285452	1.242926977	1.235760531	1.232043967	1.224566302
536	1.172629728	1.251943357	1.249918615	1.244127716	1.240741785	1.233565421	1.229804686	1.222290348
537	1.170123442	1.249702428	1.247704579	1.241956985	1.238584093	1.231344467	1.227588857	1.220036057
538	1.166331272	1.247437221	1.245490989	1.239815825	1.236453534	1.229148091	1.225396171	1.217746091
539	1.16322058	1.24514935	1.243314304	1.237662237	1.234305469	1.227025371	1.223226326	1.215534618
540	1.159805336	1.242905273	1.241138459	1.235538101	1.232140537	1.224827784	1.221027474	1.213287589
541	1.157089873	1.240640239	1.23892879	1.233402089	1.230046599	1.222703221	1.218851524	1.211061776
542	1.153060914	1.238387517	1.236756592	1.231295407	1.227935733	1.220553549	1.216698177	1.208856905
543	1.150758344	1.23611624	1.234586836	1.229177386	1.225808559	1.218427528	1.214567139	1.206672704
544	1.147134997	1.233858923	1.232420045	1.227088566	1.223708335	1.216324847	1.212458121	1.204508905
545	1.144235778	1.231616009	1.230256729	1.22498893	1.221634705	1.214245204	1.210320893	1.202365245
546	1.141036104	1.22932745	1.228097396	1.222918362	1.219545306	1.212141141	1.208255372	1.200187026
547	1.137532368	1.227055604	1.225942545	1.220837487	1.217482431	1.210060138	1.206161702	1.198083183
548	1.134774818	1.224800884	1.223759862	1.218746868	1.215445732	1.208001897	1.204040527	1.195944891
