 TITLE = "Density VS Temperature for Oxygen" 

 VARIABLES =  T	rho_NIST_0.1Mpa	rho_Soave_0.1Mpa	rho_new_0.1Mpa	rho_NIST_1Mpa	rho_Soave_1Mpa	rho_new_1Mpa	rho_NIST_5Mpa	rho_Soave_5Mpa	rho_new_5Mpa	rho_NIST_7Mpa	rho_Soave_7Mpa	rho_new_7Mpa	rho_NIST_8Mpa	rho_Soave_8Mpa	rho_new_8Mpa	rho_NIST_10Mpa	rho_Soave_10Mpa	rho_new_10Mpa
220	2.4394	2.437912151	2.434142099	1167	1113.546777	1154.205349	1175.6	1135.781142	1171.601883	1179.7	1145.663031	1179.511102	1181.7	1150.348552	1183.296177	1185.6	1159.266426	1190.55892
230	2.3288	2.32936478	2.325614863	1129	1067.03476	1114.511148	1139.3	1094.511257	1135.402512	1144.2	1106.42262	1144.746571	1146.5	1112.016456	1149.18851	1151.2	1122.576761	1157.661865
240	2.2282	2.230185063	2.226452225	24.857	24.4480676	24.58309691	1100.7	1049.343469	1095.738853	1106.6	1063.944658	1106.940237	1109.4	1070.712534	1112.218165	1114.9	1083.353023	1122.210292
250	2.1363	2.139197524	2.135545899	23.435	23.22672257	23.33974292	1058.9	999.1051869	1054.499766	1066.2	1017.44066	1067.992058	1069.7	1025.781073	1074.278481	1076.4	1041.131784	1086.069705
260	2.0519	2.055417357	2.051792167	22.215	22.13492252	22.22294974	1012.6	941.8235657	1006.103816	1022.1	965.709923	1022.947652	1026.5	976.262948	1030.663563	1035	995.279531	1044.942384
270	1.9741	1.97801294	1.97437068	21.147	21.15139267	21.21259218	959.39	873.6399752	946.9115565	972.5	906.7510832	969.1604553	978.46	920.6515472	979.0653995	989.46	944.8907275	997.0116603
280	1.9021	1.906276924	1.90270999	20.199	20.25954741	20.30902296	893.9	784.472657	883.4063481	914.25	836.7216317	913.6132336	922.92	856.3202576	926.4767211	938.22	888.5931939	949.1067825
290	1.8352	1.839603681	1.836056344	19.349	19.44621343	19.47915682	148.41	145.4476983	157.4822719	839.25	746.044478	841.256673	854.2	777.8470607	859.6996419	878.06	824.1365732	890.3473503
300	1.773	1.777471525	1.773673909	18.579	18.70076042	18.68644981	128.4	130.7552665	133.232679	706.06	580.186831	676.2634761	753.17	669.5732082	723.6385362	801.62	747.397515	782.5977586
310	1.715	1.719428558	1.715314824	17.878	18.01449201	17.94829253	116.13	120.0798868	117.9515565	210.63	223.1376594	211.0345808	327.71	381.8193657	303.8573818	685.77	649.5786354	590.2533034
320	1.6606	1.665081304	1.660855897	17.234	17.38020869	17.2886423	107.22	111.7080698	108.2826248	178.74	192.001432	178.5333053	231.91	257.2706622	226.9665517	448.28	511.7589493	374.9800288
330	1.6097	1.614085508	1.609867801	16.641	16.79188736	16.69005969	100.22	104.843589	101.2016786	160.11	172.6361776	160.6774799	198.87	219.6019188	197.6563246	310.26	370.6715104	292.7349402
340	1.5618	1.566138627	1.561912425	16.092	16.24444203	16.13146502	94.478	99.04619066	95.16559845	146.95	158.5616301	147.1930188	178.65	196.5972249	177.6839521	258.62	300.747929	249.760921
350	1.5167	1.520973669	1.516760373	15.581	15.7335422	15.6126276	89.619	94.04514826	90.07565242	136.82	147.5437839	136.79005	164.16	180.077616	163.1870438	228.8	261.9915218	222.8200095
360	1.4742	1.478354092	1.474200482	15.105	15.25547298	15.13241252	85.418	89.66146528	85.81652125	128.61	138.52748	128.6780158	152.93	167.25323	152.3458853	208.25	236.0379362	204.4287809
370	1.434	1.438069561	1.433983713	14.659	14.80702599	14.68319202	81.726	85.77036569	82.06782023	121.75	130.9261392	121.8405301	143.82	156.8227393	143.4331531	192.74	216.7992648	190.0869058
380	1.396	1.399932402	1.395913728	14.241	14.3854132	14.26117225	78.44	82.28128248	78.70556664	115.86	124.3785976	115.9000769	136.18	148.070382	135.8263074	180.38	201.6516734	178.2891123
390	1.3599	1.363774616	1.359833864	13.848	13.98819825	13.86508171	75.484	79.12634479	75.7055696	110.73	118.6461925	110.7563726	129.63	140.5593526	129.3430866	170.18	189.243338	168.5460581
400	1.3257	1.329445356	1.325588139	13.477	13.61324111	13.49217659	72.804	76.25335464	72.99602819	106.18	113.5627842	106.2195362	123.9	134.0031501	123.694294	161.53	178.7907499	160.2583145
410	1.2931	1.296808785	1.293034504	13.127	13.25865306	13.13987472	70.355	73.62129634	70.51618114	102.11	109.0079928	102.1414451	118.84	128.2035962	118.6632613	154.05	169.8007543	153.0083158
420	1.2622	1.265742245	1.262051789	12.796	12.92275992	12.80663346	68.104	71.19735262	68.24023133	98.436	104.8917768	98.45896782	114.31	123.0178808	114.157082	147.48	161.9434999	146.6154036
430	1.2327	1.236134695	1.232528901	12.482	12.60407159	12.49093448	66.024	68.95485678	66.14273986	95.09	101.1450194	95.11348028	110.21	118.3396926	110.0920759	141.63	154.9878376	140.9254058
440	1.2045	1.207885356	1.204363021	12.183	12.30125681	12.19121461	64.094	66.87184837	64.19672796	92.025	97.71351243	92.04600545	106.49	114.0877676	106.3863508	136.39	148.7657065	135.7948084
450	1.1776	1.180902557	1.17746206	11.899	12.01312205	11.90622228	62.295	64.93003014	62.38395274	89.2	94.55396068	89.21786391	103.07	110.1986065	102.9868248	131.63	143.1512115	131.1323699
460	1.1519	1.155102719	1.15174255	11.629	11.73859368	11.63488206	60.613	63.11399928	60.69039792	86.584	91.63124306	86.60018285	99.928	106.6216616	99.85434282	127.3	138.0476876	126.8721233
470	1.1273	1.130409481	1.127127685	11.371	11.476703	11.37616763	59.035	61.41067044	59.10255811	84.151	88.91648289	84.16580389	97.016	103.3160502	96.95254825	123.32	133.3793573	122.9542725
480	1.1037	1.106752934	1.103547299	11.125	11.22657339	11.12916552	57.55	59.80883575	57.60923651	81.88	86.38565627	81.89275448	94.307	100.2482489	94.25233784	119.65	129.0857581	119.3318197
490	1.0811	1.084068954	1.080937312	10.889	10.98740943	10.89307556	56.15	58.29882455	56.20150099	79.752	84.01856765	79.76393059	91.778	97.39043593	91.73127855	116.24	125.1179061	115.9691208
500	1.0594	1.062298612	1.059238742	10.664	10.75848748	10.66716	54.826	56.87223681	54.87129689	77.754	81.79808217	77.76415532	89.41	94.71927493	89.36961997	113.07	121.4355859	112.835234
510	1.0386	1.041387659	1.038397233	10.448	10.53914763	10.4507403	53.571	55.52173185	53.6114059	75.87	79.70954099	75.88003111	87.185	92.21500656	87.1500508	110.11	118.0053936	109.903382
520	1.0185	1.021286067	1.018362775	10.241	10.3287867	10.24320766	52.38	54.24085921	52.4157568	74.092	77.74030977	74.10050452	85.089	89.86075827	85.05840152	107.33	114.7992944	107.1519357
530	0.99926	1.001947626	0.999089224	10.042	10.12685213	10.04400953	51.248	53.02392181	51.27909832	72.408	75.87942538	72.41616811	83.109	87.64201272	83.08269488	104.72	111.7935416	104.562823
540	0.98071	0.983329588	0.980533857	9.8512	9.932836691	9.852635019	50.169	51.86586449	50.19665933	70.812	74.11731632	70.81856152	81.235	85.54619284	81.21221147	102.26	108.9678533	102.1200101
550	0.96283	0.965392344	0.962657117	9.6675	9.746273875	9.668616715	49.14	50.76218222	49.16423561	69.294	72.4455791	69.30032814	79.458	83.56233418	79.43768329	99.93	106.3047768	99.80976857
560	0.94559	0.948099144	0.94542234	9.4907	9.566733783	9.491527825	48.157	49.70884422	48.17815184	67.849	70.85679769	67.85512688	77.769	81.68082338	77.75116868	97.725	103.7891919	97.62045074
570	0.92897	0.931415842	0.928795405	9.3203	9.393819562	9.320968939	47.216	48.7022306	47.23496013	66.472	69.3443964	66.4770334	76.16	79.89318745	76.14526515	95.633	101.4079177	95.54124881
580	0.91292	0.915310668	0.912744571	9.1562	9.227164233	9.156570963	46.315	47.73907921	46.33154993	65.156	67.90251916	65.16075275	74.627	78.19192238	74.61338384	93.644	99.1493988	93.56261141
590	0.89741	0.899754025	0.897240375	8.9978	9.066427888	8.998002903	45.451	46.81644074	45.4653717	63.898	66.52592956	63.90205133	73.162	76.5703527	73.15030759	91.749	97.0034521	91.6770943
600	0.88242	0.884718307	0.882255327	8.8449	8.911295201	8.844956608	44.621	45.93164071	44.63407998	62.694	65.20992762	62.69705677	71.762	75.02251544	71.75127711	89.941	94.96106061	89.87793851
610	0.86793	0.870177732	0.867763659	8.6972	8.761473213	8.697136409	43.824	45.08224689	43.83530464	61.539	63.95027999	61.54181519	70.42	73.54306364	70.41141602	88.214	93.01420452	88.15818408
620	0.85391	0.856108196	0.853741315	8.5545	8.616689352	8.5542705	43.057	44.26604149	43.06696005	60.43	62.74316115	60.43289385	69.135	72.12718554	69.12651402	86.561	91.15572154	86.51187695
630	0.84033	0.842487136	0.840165827	8.4164	8.476689669	8.416110897	42.319	43.48099714	42.32726415	59.365	61.58510344	59.36741697	67.9	70.7705366	67.89307201	84.977	89.37919072	84.93413429
640	0.82718	0.829293411	0.827016119	8.2829	8.341237248	8.282423489	41.607	42.72525616	41.614513	58.341	60.47295456	58.34262955	66.714	69.46918182	66.70773618	83.458	87.67883516	83.42027331
650	0.81444	0.81650719	0.81427243	8.1535	8.210110786	8.152990949	40.921	41.9971125	40.92717172	57.354	59.4038411	57.35607483	65.573	68.21954671	65.56752841	81.999	86.04944004	81.96616564
660	0.80208	0.804109851	0.801916225	8.0282	8.083103308	8.027611511	40.259	41.29499605	40.26386133	56.404	58.37513717	56.40556974	64.475	67.01837532	64.46981461	80.597	84.48628326	80.56818847
670	0.79009	0.792083892	0.789930018	7.9068	7.960021014	7.90609002	39.619	40.61745891	39.62315684	55.488	57.38443731	55.48881731	63.416	65.86269413	63.41180351	79.248	82.98507629	79.22245809
680	0.77846	0.780412848	0.778297366	7.789	7.840682232	7.788244209	39	39.96316329	39.00375546	54.603	56.42953299	54.60373269	62.395	64.74978095	62.39096944	77.948	81.54191367	77.92547871
690	0.76716	0.769081214	0.767002873	7.6747	7.724916475	7.673911835	38.402	39.33087089	38.40466199	53.748	55.50839205	53.74880032	61.409	63.67713786	61.40551402	76.695	80.15322948	76.67484781
700	0.75619	0.758074377	0.756032025	7.5638	7.61256358	7.56294001	37.823	38.71943353	37.82494126	52.922	54.61914084	52.92259814	60.457	62.64246774	60.45375087	75.486	78.81575989	75.46831509
710	0.74552	0.74737855	0.745371074	7.4561	7.50347293	7.455179453	37.262	38.12778482	37.26359126	52.123	53.7600485	52.12355562	59.537	61.64365374	59.53379387	74.318	77.5265106	74.30330817
720	0.73516	0.736980719	0.73500702	7.3514	7.397502749	7.350487517	36.718	37.55493276	36.71962763	51.35	52.92951312	51.35011793	58.646	60.6787413	58.64376996	73.189	76.28272854	73.17725937
730	0.72508	0.726868585	0.724927545	7.2497	7.294519451	7.248726494	36.191	36.99995317	36.19205265	50.601	52.12604951	50.60068774	57.784	59.74592229	57.7817446	72.098	75.08187719	72.08749331
740	0.71527	0.717030519	0.715121106	7.1508	7.194397052	7.149776998	35.68	36.46198383	35.68018516	49.875	51.34827841	49.87425837	56.949	58.84352111	56.9465393	71.042	73.92161491	71.03247346
750	0.70572	0.707455515	0.705576895	7.0546	7.097016632	7.053537589	35.184	35.94021918	35.1836578	49.171	50.59491688	49.17040797	56.139	57.9699823	56.13772362	70.019	72.79977588	70.01178863
760	0.69643	0.698133148	0.696284321	6.9609	7.002265842	6.959877637	34.702	35.43390561	34.70129594	48.487	49.86476976	48.48715485	55.354	57.12385959	55.35284883	69.027	71.71435335	69.02194101
770	0.68738	0.68905354	0.687233318	6.8698	6.910038452	6.868670658	34.233	34.94233723	34.23192596	47.824	49.15672201	47.82250764	54.592	56.30380616	54.58944938	68.066	70.66348473	68.0593983
780	0.67856	0.680207318	0.678415259	6.781	6.820233933	6.779887965	33.778	34.46485203	33.77661493	47.18	48.46973192	47.17874634	53.852	55.50856594	53.85056234	67.134	69.64543848	67.12899051
790	0.66996	0.671585589	0.669821318	6.6945	6.732757081	6.69343957	33.335	34.00082841	33.33487434	46.554	47.80282495	46.55516219	53.134	54.73696585	53.13536465	66.228	68.65860231	66.22965963
800	0.66158	0.663179906	0.661439963	6.6102	6.647517661	6.608928265	32.904	33.54968208	32.89882033	45.945	47.15508826	45.93691257	52.435	53.9879088	52.42481271	65.349	67.70147278	65.33263481
