 TITLE = "PR density_T" 

  VARIABLES = Temperature	PR_h_01	NIST_h_01	PR_h_1	NIST_h_1	PR_h_3	NIST_h_3	PR_h_5	NIST_h_5	PR_h_7	NIST_h_7	PR_h_10	NIST_h_10
220	442.2805389	442.23	68.46549727	86.832	69.17161812	87.933	69.59880394	88.52	69.8288193	88.823	70.31916107	89.443
230	450.0327469	450.07	88.60879776	106.59	88.74544447	107.37	88.92955968	107.82	89.04659483	108.06	89.32603016	108.56
240	457.8915534	457.99	445.0284079	442.37	109.2693059	127.16	109.1152706	127.42	109.0777513	127.56	109.0728955	127.9
250	465.8557513	466	453.956177	452.18	131.0034235	147.47	130.3576661	147.45	130.1007122	147.48	129.7003397	147.58
260	473.9239956	474.1	462.869914	461.73	154.3815432	168.6	152.9734077	168.17	152.3883734	168.01	151.4137889	167.78
270	482.0948419	482.29	471.7903465	471.11	180.2170652	191.05	177.501405	189.91	176.3869414	189.46	174.5270739	188.72
280	490.3667747	490.57	480.7324873	480.39	210.4010237	215.9	204.9882907	213.35	202.9067056	212.37	199.5523022	210.78
290	498.7382292	498.95	489.7074323	489.63	429.190775	424.89	238.0344814	240.12	233.7073207	237.9	227.4116093	234.62
300	507.2076088	507.43	498.7235022	498.84	447.136524	445.95	289.9616101	278.44	274.365679	269.96	260.0409855	261.8
310	515.7732979	516	507.786997	508.05	462.178679	462.41	423.3881957	423.31	382.9401725	381.94	302.618944	297.3
320	524.4336726	524.67	516.9027121	517.28	475.8034167	476.86	446.2293292	447.75	426.1549792	427.93	365.3712194	362.9
330	533.1871086	533.43	526.0743012	526.54	488.5860437	490.17	463.9971892	466.29	449.1666551	451.85	411.9654354	414.73
340	542.0319879	542.29	535.3045377	535.84	500.816921	502.74	479.5355126	482.28	467.4306348	470.6	439.6232578	443.38
350	550.966704	551.23	544.5955072	545.18	512.6650083	514.81	493.8052857	496.81	483.4502931	486.89	460.7241735	464.86
360	559.9896655	560.27	553.948752	554.58	524.2379139	526.53	507.25999	510.42	498.1560478	501.74	478.7201798	483.02
370	569.0993	569.39	563.3653806	564.02	535.6086019	537.99	520.1526881	523.4	512.0038606	515.66	494.924861	499.29
380	578.2940561	578.6	572.8461527	573.53	546.8288748	549.25	532.6399803	535.91	525.2533199	528.92	509.9736496	514.33
390	587.5724053	587.89	582.3915454	583.09	557.936824	560.36	544.8258618	548.08	538.0670368	541.7	524.2222917	528.53
400	596.9328441	597.27	592.0018058	592.72	568.9612416	571.37	556.7830313	559.99	550.5538829	554.13	537.8902103	542.11
410	606.3738945	606.73	601.6769928	602.41	579.9243767	582.3	568.5643289	571.7	562.7904137	566.28	551.1223674	555.22
420	615.8941052	616.26	611.4170108	612.15	590.8437339	593.18	580.209351	583.27	574.8325218	578.22	564.0195541	567.99
430	625.492052	625.88	621.2216372	621.97	601.7332905	604.01	591.7485046	594.71	586.722243	590	576.654668	580.48
440	635.1663381	635.57	631.0905446	631.84	612.604345	614.81	603.2056115	606.07	598.4919569	601.65	589.082106	592.75
450	644.9155945	645.34	641.0233194	641.78	623.4661246	625.61	614.5996452	617.35	610.1671001	613.2	601.3435006	604.85
460	654.7384799	655.18	651.019477	651.77	634.326229	636.39	625.9459283	628.59	621.767984	624.67	613.4713864	616.82
470	664.6336805	665.09	661.0784744	661.83	645.190962	647.18	637.2569805	639.78	633.3110522	636.08	625.4916351	628.67
480	674.5999098	675.07	671.1997209	671.96	656.0655832	657.98	648.5431329	650.96	644.8097732	647.44	637.4251248	640.44
490	684.6359086	685.13	681.3825865	682.14	666.9545009	668.79	659.8129827	662.11	656.2752888	658.78	649.2889169	652.14
500	694.7404441	695.25	691.6264102	692.38	677.8614238	679.62	671.0737355	673.26	667.7168946	670.09	661.0971041	663.79
510	704.9123098	705.44	701.9305052	702.68	688.7894805	690.47	682.3314678	684.4	679.1424035	681.38	672.8614363	675.39
520	715.150325	715.69	712.2941649	713.05	699.7413143	701.35	693.5913299	695.55	690.5584225	692.67	684.5917885	686.97
530	725.453334	726.01	722.7166671	723.47	710.7191606	712.25	704.8577059	706.71	701.9705697	703.96	696.2965187	698.52
540	735.8202057	736.39	733.1972775	733.94	721.7249095	723.18	716.1343407	717.88	713.3836432	715.25	707.9827439	710.06
550	746.2498327	746.83	743.7352534	744.48	732.7601566	734.15	727.4244419	729.07	724.801757	726.56	719.6565561	721.59
560	756.7411309	757.33	754.3298455	755.07	743.8262458	745.14	738.7307628	740.27	736.2284491	737.87	731.3231939	733.12
570	767.2930387	767.89	764.9803009	765.71	754.9243044	756.17	750.0556695	751.5	747.6667697	749.19	742.9871792	744.64
580	777.9045162	778.51	775.6858645	776.41	766.0552728	767.24	761.401197	762.75	759.1193532	760.54	754.6524287	756.18
590	788.5745442	789.19	786.4457806	787.17	777.2199286	778.34	772.7690948	774.03	770.5884779	771.9	766.3223435	767.72
600	799.3021241	799.93	797.2592938	797.97	788.4189085	789.47	784.160866	785.33	782.0761145	783.29	777.9998837	779.27
610	810.0862763	810.72	808.1256508	808.83	799.6527253	800.64	795.5777992	796.66	793.583968	794.7	789.6876297	790.84
620	820.9260401	821.56	819.0441003	819.74	810.9217833	811.85	807.0209958	808.02	805.1135118	806.13	801.3878335	802.43
630	831.8204722	832.46	830.013894	830.7	822.2263916	823.1	818.4913936	819.41	816.6660172	817.59	813.1024613	814.03
640	842.7686463	843.41	841.0342871	841.71	833.5667746	834.38	829.9897859	830.83	828.2425776	829.08	824.83323	825.65
650	853.7696522	854.41	852.1045383	852.77	844.9430819	845.7	841.5168386	842.28	839.8441303	840.6	836.5816373	837.3
660	864.8225949	865.46	863.2239102	863.88	856.3553966	857.05	853.0731046	853.76	851.4714739	852.14	848.3489882	848.96
670	875.9265935	876.56	874.3916693	875.04	867.8037423	868.45	864.6590365	865.27	863.1252843	863.71	860.1364172	860.65
680	887.0807807	887.71	885.607086	886.24	879.2880891	879.88	876.274997	876.81	874.8061277	875.31	871.9449072	872.37
690	898.2843015	898.91	896.8694342	897.49	890.8083593	891.35	887.9212682	888.39	886.5144724	886.94	883.775306	884.11
700	909.5363129	910.16	908.1779915	908.78	902.3644317	902.85	899.5980599	900	898.2506984	898.6	895.6283407	895.87
710	920.8359822	921.45	919.5320386	920.12	913.9561458	914.39	911.3055164	911.64	910.0151066	910.29	907.5046296	907.66
720	932.1824868	932.79	930.930859	931.5	925.583305	925.97	923.0437226	923.31	921.8079259	922.02	919.4046935	919.48
730	943.575013	944.17	942.3737389	942.92	937.24568	937.58	934.8127094	935.02	933.6293201	933.77	931.3289642	931.32
740	955.012755	955.59	953.8599663	954.39	948.9430109	949.23	946.6124582	946.76	945.4793932	945.55	943.2777934	943.19
750	966.4949141	967.06	965.3888309	965.9	960.6750098	960.91	958.4429049	958.53	957.3581948	957.36	955.2514592	955.09
760	978.0206978	978.57	976.9596234	977.45	972.4413626	972.63	970.3039434	970.33	969.2657242	969.2	967.2501726	967.01
770	989.5893188	990.12	988.5716348	989.04	984.2417305	984.38	982.1954289	982.16	981.2019344	981.08	979.2740829	978.96
780	1001.199994	1001.7	1000.224156	1000.7	996.0757517	996.17	994.11718	994.03	993.1667353	992.98	991.3232821	990.94
790	1012.851944	1013.4	1011.916478	1012.3	1007.943042	1008	1006.068982	1005.9	1005.159996	1004.9	1003.39781	1002.9
800	1024.544392	1025	1023.647888	1024	1019.843197	1019.8	1018.050586	1017.8	1017.18155	1016.9	1015.497655	1015
