 TITLE = "Density VS Temperature for Oxygen" 

 VARIABLES =  T	rho_NIST_0.1Mpa	rho_Soave_0.1Mpa	rho_new_0.1Mpa	rho_NIST_1Mpa	rho_Soave_1Mpa	rho_new_1Mpa	rho_NIST_5Mpa	rho_Soave_5Mpa	rho_new_5Mpa	rho_NIST_7Mpa	rho_Soave_7Mpa	rho_new_7Mpa	rho_NIST_8Mpa	rho_Soave_8Mpa	rho_new_8Mpa	rho_NIST_10Mpa	rho_Soave_10Mpa	rho_new_10Mpa
220	2.439412032	2.437993622	2.443018553	1167.03286	1220.61139	1157.787628	1175.623641	1229.455056	1172.23009	1179.717623	1235.005256	1180.09768	1181.718477	1237.69142	1183.863534	1185.633186	1242.898179	1191.090594
225	2.382765249	2.381908828	2.386819197	1148.318089	1198.889259	1138.415575	1157.718423	1209.196248	1154.530097	1162.173812	1215.362469	1163.068662	1164.346005	1218.338276	1167.142993	1168.586394	1224.091483	1174.940651
230	2.328819688	2.328405163	2.333206165	1128.97223	1175.881187	1117.98686	1139.309618	1187.889264	1136.021652	1144.177726	1194.763438	1145.319272	1146.544439	1198.069994	1149.74006	1151.152617	1204.443653	1158.174601
235	2.277373063	2.277304533	2.282001011	25.66505944	25.56424667	25.28097332	1120.321746	1165.422552	1116.872008	1125.665698	1173.116898	1127.020285	1128.255143	1176.803777	1131.826149	1133.28186	1183.886186	1140.963611
240	2.228244504	2.22844519	2.233041667	24.85656808	24.816737	24.59667531	1100.663755	1141.661533	1097.096433	1106.562376	1150.314999	1108.199411	1109.409321	1154.442713	1113.433389	1114.916411	1162.340317	1123.346184
245	2.181271556	2.181679867	2.186180574	24.11681159	24.12087738	23.95364797	1080.223601	1116.441055	1076.476458	1086.777135	1126.22858	1088.668377	1089.925092	1130.872024	1094.385367	1095.988879	1139.714674	1105.16509
250	2.136307699	2.136874164	2.141283068	23.43519878	23.47072945	23.34695364	1058.860083	1089.554271	1054.63062	1066.198959	1100.70052	1068.096036	1069.703401	1105.953915	1074.370669	1076.419569	1115.902161	1086.140894
255	2.093220297	2.093905152	2.098225972	22.80341488	22.86131176	22.77292748	1036.390542	1060.735635	1031.228854	1044.689135	1073.536117	1046.214801	1048.622338	1079.520292	1053.144949	1056.11298	1090.775795	1066.065264
260	2.051888866	2.052660148	2.05689638	22.2148497	22.28840393	22.22934171	1012.571933	1029.633657	1006.222111	1022.070657	1044.488704	1023.034996	1026.529073	1051.362214	1030.737799	1034.953053	1064.182984	1044.993888
265	2.012203624	2.01303566	2.017190593	21.66416942	21.7483987	21.71480446	987.0689188	995.7646718	979.880699	998.111519	1013.237207	998.8740244	1003.227521	1021.214032	1007.477416	1012.796249	1035.937506	1023.263286
270	1.974064247	1.974936449	1.979013181	21.14700655	21.2381885	21.22767385	959.3936952	958.4283394	952.4588256	972.4959234	979.3493574	974.0451571	978.4578428	988.7285797	983.6887182	989.4607858	1005.807961	1001.20498
275	1.937378814	1.938274713	1.942276167	20.65973555	20.75507712	20.76512881	928.7816347	916.5370197	923.4699398	944.7720745	942.2174595	948.2299726	951.8612331	953.4363101	959.1009102	964.7097791	973.5006087	978.6088076
280	1.902062893	1.902969363	1.906898298	20.19930914	20.29671024	20.32302024	893.9029931	868.2185164	890.7921401	914.2521345	900.9365348	919.8037676	922.917213	914.6736234	932.2406521	938.2246922	938.6329642	954.2117605
285	1.868038751	1.868945384	1.869229598	19.76313775	19.86102006	19.8967115	852.0370827	809.6580886	849.7615715	879.7961549	854.0455793	885.4296109	890.8206626	871.446271	900.1422082	909.5605161	900.6913962	925.5416371
290	1.835234673	1.836133273	1.836426577	19.34899937	19.44618067	19.48252381	148.4131468	151	157	839.2525766	798.8790223	839.8215223	854.2020949	822.1380321	858.3883151	878.0593088	858.9595992	889.2026084
295	1.80358436	1.804468531	1.804700868	18.95497108	19.05057192	19.07898216	136.8519114	139.8987478	143	787.6317979	729.4247992	774.4277257	810.4030342	763.77866	800.8710409	842.6721905	812.3907314	841.3511762
300	1.773026407	1.773891215	1.774010216	18.57937604	18.67274969	18.68711333	128.3982828	131.4896363	132.9244227	706.0562207	623.0796325	666.8702702	753.1674323	689.6392899	717.0732751	801.6163419	759.3637712	777.9259479
305	1.743503836	1.744345542	1.744330212	18.22074198	18.31142147	18.30959402	121.6942292	124.6721985	124.5204794	243.0815294	249.1328054	247.4973215	656.7657092	575.3346739	567.7590989	751.6719894	697.1946292	694.0586364
310	1.71496369	1.715779525	1.715642022	17.87776816	17.96542592	17.94922306	116.1292226	118.9406325	117.7768994	210.6251566	216.7599755	209.9462022	327.71209	330.995592	299.4408227	685.7732066	621.2350217	582.5402537
315	1.687356669	1.688144654	1.687920089	17.54929905	17.63371586	17.60753005	111.3707147	114.000745	112.324088	191.9693748	197.583949	190.087502	261.2862278	267.58299	248.6258021	586.0223618	525.434663	450.5037658
320	1.660636812	1.661395609	1.661125631	17.23430305	17.31534387	17.28415666	107.2156509	109.6651419	107.8443976	178.7400666	183.8177363	176.8729022	231.9089537	237.9850729	223.6528195	448.2772002	423.2741393	361.8113409
325	1.634761205	1.635489994	1.635208072	16.93185514	17.00945012	16.97715604	103.5301839	105.806605	104.0592366	168.4809457	173.0720203	167.0804833	212.8993553	218.4711507	207.344633	358.0392543	353.566176	315.1143751
330	1.609689731	1.610388108	1.610112196	16.64112241	16.71525201	16.68388813	100.2211022	102.3345812	100.7436859	160.1095206	164.2702893	159.2240984	198.8735306	203.9322042	195.161373	310.2550227	311.3656639	285.7960998
335	1.585384832	1.586052727	1.585786382	16.36135202	16.43203526	16.40197483	97.22073903	99.18220899	97.74142362	153.0479365	156.8294125	152.5288596	187.7888063	192.3770404	185.2417385	280.1066858	282.9525266	264.4665059
340	1.561811307	1.562448915	1.562187764	16.09186107	16.15914627	16.12987081	94.47833493	96.29865348	94.96504435	146.9499879	150.3961289	146.6079048	178.6472469	182.8151821	176.7464753	258.615289	262.0023522	247.5681059
345	1.538936124	1.53954385	1.539282714	15.832028	15.89598555	15.86689955	91.95478604	93.64432847	92.37897047	141.5913437	144.7395336	141.2908671	170.8858874	174.6802324	169.3057152	242.1090936	245.5953421	233.6123432
350	1.516728249	1.517306661	1.517043846	15.58128535	15.64200191	15.61290624	89.61929703	91.18778573	89.97367193	136.8180808	139.7001165	136.5046852	164.1555933	167.6172825	162.7466078	228.8043507	232.20803	221.880546
355	1.495158496	1.495708287	1.495446076	15.33911356	15.39668753	15.3678237	87.44716388	88.903616	87.74360226	132.5198669	135.1629424	132.1990712	158.2247055	161.3890098	156.9522764	217.7159366	220.9593216	211.9192548
360	1.474199387	1.474721345	1.47446398	15.10503565	15.1595736	15.1313936	85.418256	86.77098902	85.6761647	128.6148462	131.0423918	128.3150489	152.9315309	155.8287983	151.806749	208.2467081	211.2981679	203.3623248
365	1.453825025	1.454320008	1.454071232	14.87861263	14.9302264	14.90312194	83.51594707	84.77261182	83.75133778	125.0405815	127.2729413	124.7838692	148.1586935	150.8151499	147.1903265	200.0088543	202.8586881	195.8934515
370	1.434010983	1.434479896	1.434241566	14.65943954	14.70824405	14.68239847	81.72634304	82.89396845	81.94694167	121.7483474	123.8033154	121.5389625	143.8182815	146.2567315	142.9944104	192.7369325	195.3863197	189.2556029
375	1.414734195	1.415177976	1.414950109	14.44714196	14.49325341	14.4686512	80.03771273	81.12275439	80.24412363	118.6993841	120.5926276	118.527151	139.8427489	142.0831517	139.1350113	186.2416318	188.6972049	183.2615092
380	1.395972864	1.396392466	1.396174179	14.24137302	14.28490752	14.26143768	78.44006002	79.44844852	78.62990514	115.8623526	117.6077488	115.7125134	136.1790836	138.2390162	135.5559874	180.3834072	182.654442	177.7887827
385	1.377706371	1.378102756	1.37789325	14.04181071	14.08288322	14.06044621	76.92479721	77.8619841	77.09647419	113.2115551	114.8214613	113.0730605	132.7849249	134.6799552	132.2227386	175.056573	177.1534812	172.7615442
390	1.359915198	1.360289326	1.360088382	13.84815556	13.88687906	13.86543939	75.48449195	76.35549258	75.63876406	110.7256596	112.2111316	110.5941958	129.6258973	131.3698853	129.112101	170.179255	172.1127582	168.1285967
395	1.342580855	1.342933675	1.342741591	13.66012857	13.69661344	13.67619153	74.11266879	74.92210151	74.25217189	108.3867654	109.757737	108.2631309	126.6737291	128.2790716	126.2041427	165.6867962	167.4674728	163.8472618
400	1.325685808	1.326018253	1.325835476	13.47746936	13.51182294	13.49245527	72.80365155	73.55577346	72.93146867	106.179707	107.4451375	106.0663331	123.9048935	125.3827255	123.4784763	161.5272871	163.1653282	159.8762844
405	1.30921342	1.309526406	1.309353181	13.29993455	13.33226081	13.31396334	71.55243703	72.25117628	71.67090992	104.0915254	105.2595229	103.9897321	121.2996082	122.6599693	120.9144751	157.6584508	159.1635362	156.1758485
410	1.293147893	1.293442312	1.293278556	13.12729634	13.15769562	13.14045009	70.35459266	71.00357763	70.46493105	102.1110611	103.188986	102.0201714	118.8410847	120.0930577	118.4931852	154.0454208	155.4266647	152.7104848
415	1.277474216	1.277750934	1.27759631	12.95934113	12.98791007	12.97167243	69.20617293	69.80875854	69.30876322	100.2286374	101.2231899	100.1466261	116.5149566	117.666784	116.1988882	150.6591214	151.925058	149.4513196
420	1.262178115	1.262437971	1.262292056	12.79586846	12.82269984	12.80741823	68.10365063	68.66294205	68.1986263	98.43580946	99.35310424	98.36049008	114.3088375	115.3680205	114.0193884	147.4750648	148.6336579	146.3761844
425	1.247246006	1.247489812	1.247352239	12.63668987	12.66187265	12.64750178	67.04385972	67.56273377	67.13152833	96.725165	97.57079524	96.65504123	112.2119758	113.185358	111.9452051	144.4724442	145.5311094	143.4679815
430	1.232664958	1.232893493	1.232763996	12.481628	12.50524731	12.49175299	66.02394773	66.50507217	66.10490719	95.09016317	95.8692558	95.02461271	110.2149804	111.1088204	109.9683983	141.6334386	142.5990724	140.712552
435	1.218422647	1.218636665	1.218515039	12.33051575	12.35265293	12.34000832	65.04133567	65.48718664	65.11634654	93.52500382	94.24226746	93.46395752	108.3096026	109.1296358	108.0816824	138.942674	139.8216855	138.0971114
440	1.204507327	1.204707549	1.204593594	12.18319547	12.20392817	12.19210717	64.09368422	64.50656198	64.16346953	92.02452025	92.684287	91.96800736	106.4885589	107.2400515	106.2780857	136.3867993	137.1851435	135.6096346
445	1.190907794	1.191094913	1.190988385	12.03951831	12.05892054	12.04789328	63.17886488	63.56090815	63.24397984	90.58409069	91.19035278	90.53194492	104.7453871	105.4331834	104.5510368	133.9541506	134.6773605	133.2389549
450	1.177613351	1.17778803	1.17768864	11.89934353	11.91748581	11.90721799	62.29493549	62.6481343	62.35575436	89.19956466	89.75600664	89.15138175	103.0743282	103.7028916	102.8945902	131.6344814	132.2876987	130.9750928
455	1.164613786	1.16477666	1.164684091	11.76253796	11.77948741	11.7699426	61.44011901	61.76632654	61.49690377	87.86720131	88.37722858	87.82246721	101.4702289	102.043678	101.3035604	129.4187444	130.006749	128.8094329
460	1.151899338	1.152051014	1.151964955	11.62897547	11.64479593	11.63593845	60.61278542	60.91372863	60.66576927	86.58361751	87.05038153	86.54186657	99.9284598	100.4506007	99.77348146	127.2989133	127.8261509	126.7346231
465	1.139460678	1.139601736	1.139521893	11.49853648	11.51328863	11.50508534	59.81143588	60.08872526	59.86087256	85.3457439	85.77216469	85.30664611	98.44484739	98.91920183	98.30044529	125.2678369	125.7384441	124.7442868
470	1.12728888	1.127419872	1.127345978	11.37110751	11.38484901	11.37726942	59.03468909	59.28982753	59.08085616	84.15078743	84.53957361	84.11414277	97.01561649	97.44544705	96.88092235	123.3191172	123.736945	122.832715
475	1.115375404	1.115496858	1.115428656	11.24658078	11.25936641	11.25238179	58.28126927	58.51566013	58.32444322	82.9961993	83.34986608	82.96187673	95.63734147	96.02567416	95.5116415	121.447009	121.8156444	120.9946615
480	1.103712071	1.103824489	1.103761728	11.12485387	11.1367356	11.13031797	57.54999571	57.76495027	57.59042491	81.8796475	82.20053278	81.84752179	94.3069047	94.65654908	94.18954785	119.6463343	119.9691207	119.2252657
485	1.092291047	1.092394908	1.092337337	11.00582933	11.01685651	11.01097808	56.83977359	57.03651775	56.87766603	80.79899294	81.08927184	80.76891346	93.02146093	93.3350282	92.91181099	117.9124115	118.1924664	117.520058
490	1.081104822	1.081200582	1.08114795	10.88941439	10.89963384	10.89426713	56.14958578	56.32926634	56.18511398	79.7522689	80.01396686	79.72406379	91.77840672	92.05832595	91.67584222	116.2409941	116.4812264	115.8749801
495	1.070146197	1.070234291	1.070186351	10.77552067	10.7849768	10.78009511	55.47848575	55.64217603	55.51180039	78.73766307	78.97266768	78.71116177	90.57535392	90.82388676	90.47929304	114.6282194	114.8313444	114.2863761
500	1.059408265	1.059489105	1.059445623	10.66406391	10.67279885	10.66837663	54.82559111	54.97429622	54.85683363	77.75350185	77.96357363	77.72855563	89.41010681	89.62936072	89.32003004	113.0705638	113.2391177	112.7509474
505	1.048884398	1.048958376	1.048919126	10.55496373	10.56301742	10.55903046	54.19007801	54.32473966	54.21938627	76.79823664	76.98501876	76.77472584	88.28064201	88.47258232	88.19609788	111.5648046	111.7011576	111.2656898
510	1.03856823	1.038635721	1.038600488	10.44814339	10.4555537	10.45197901	53.57117606	53.69267693	53.59868335	75.87043175	76.0354589	75.84826007	87.18509109	87.35155189	87.10568531	110.1079875	110.2143554	109.8278366
515	1.02845365	1.028515007	1.028483587	10.34352957	10.35033239	10.34714804	52.9681638	53.07733164	52.99399491	74.96875373	75.1134602	74.94783709	86.12172522	86.2644193	86.04710314	108.6973974	108.7758528	108.4348217
520	1.018534781	1.018590342	1.018562536	10.24105219	10.24728157	10.24446645	52.38036463	52.47797605	52.40463273	74.0919619	74.21768901	74.07221954	85.0889417	85.20946957	85.01877413	107.3305338	107.3830165	107.0842613
525	1.008805977	1.008856063	1.008831678	10.14064422	10.14633241	10.14386624	51.80714323	51.89392711	51.82994952	73.23890004	73.34690284	73.22025136	84.08525205	84.18511023	84.01922899	106.0050889	106.0334147	105.7739462
530	0.999261806	0.999306722	0.999285574	10.04224152	10.04741909	10.04528236	51.24790223	51.32454293	51.26933796	72.40848888	72.49994235	72.39085528	83.10927147	83.18986003	83.04710264	104.7189286	104.7247982	104.5018343
535	0.989897043	0.989937078	0.989918989	9.945782646	9.950478579	9.948652653	50.70207924	50.7692196	50.72222848	71.59971948	71.6757242	71.58302789	82.1597095	82.22233897	82.10112726	103.4700755	103.4550825	103.2660383
540	0.98070666	0.980742087	0.980726888	9.851208753	9.855450504	9.853917634	50.16914423	50.22738826	50.18808593	70.81164723	70.87323461	70.79583246	81.23536172	81.28125943	81.18012261	102.2566943	102.2223323	102.0648097
545	0.971685813	0.971716895	0.971704423	9.758463414	9.762277006	9.761020312	49.64859704	49.69851249	49.66640587	70.0433866	70.09152363	70.02839127	80.33510226	80.36541816	80.28298562	101.0770783	101.0247477	100.8965215
550	0.96282984	0.962856823	0.962846925	9.667492512	9.670902606	9.66990602	49.13996523	49.18208594	49.15671131	69.29410626	69.32969993	69.27987899	79.45787719	79.47368923	79.4086816	99.92963826	99.86065249	99.75965399
555	0.954134246	0.954157366	0.954149893	9.578244115	9.581274079	9.580522285	48.64280206	48.67763009	48.65855053	68.5630248	68.58692619	68.54951803	78.60269857	78.60501757	78.55623792	98.81289143	98.72848286	98.65278418
560	0.945594701	0.945614181	0.945608992	9.490668362	9.493340342	9.492818721	48.15668464	48.18469238	48.17149551	67.84940682	67.86241484	67.8365754	77.76863904	77.75841331	77.72473974	97.72545271	97.62677785	97.57457884
565	0.937207029	0.937223081	0.93722004	9.40471736	9.40705234	9.406746942	47.68121231	47.70284429	47.69514083	67.15255944	67.15542426	67.1403603	76.95482706	76.93294652	76.91332686	96.66602622	96.55417071	96.52378906
570	0.928967202	0.928980026	0.928979006	9.32034508	9.322362947	9.322260483	47.21600508	47.23167975	47.22910253	66.47182905	66.46525532	66.46022181	76.16044249	76.12774258	76.12119045	95.63339786	95.50938106	95.49924495
575	0.920871333	0.920881122	0.920881997	9.237507271	9.239226867	9.239314697	46.76070225	46.77081361	46.7730167	65.80659842	65.79124829	65.79554607	75.38471268	75.34197794	75.34756939	94.62642865	94.49120789	94.49984966
580	0.912915673	0.912922606	0.912925261	9.156161365	9.157600547	9.157866664	46.31496114	46.31988024	46.32653793	65.15628411	65.13277989	65.14575319	74.62690889	74.57487626	74.5917461	93.64404869	93.49852323	93.52457269
585	0.9050966	0.90510085	0.905105172	9.076266401	9.07744209	9.077875086	45.87845591	45.87853226	45.88933777	64.52033401	64.48926077	64.51029411	73.88634304	73.82570494	73.85304247	92.68525179	92.5302665	92.57244336
590	0.897410618	0.897412348	0.897418231	8.997782945	8.998711175	8.999300202	45.45087646	45.44643937	45.46110333	63.89822516	63.86013309	63.88864792	73.16236478	73.09377196	73.1308163	91.7490905	91.58543926	91.64254525
595	0.889854348	0.889853712	0.889861055	8.920673018	8.921368983	8.92210371	45.03192748	45.02328726	45.04153625	63.28946177	63.24486836	63.2803199	72.45435876	72.37842295	72.42445871	90.8346717	90.66310058	90.73401206
600	0.882424525	0.882421671	0.882430377	8.844900027	8.845378125	8.846248709	44.62132748	44.6087766	44.63035215	62.69357335	62.64296544	62.68484028	71.76174223	71.67903856	71.73339252	89.94115255	89.76236278	89.84602499
605	0.875117995	0.875113062	0.875123037	8.770428702	8.770702577	8.771699653	44.21880799	44.20262214	44.22728012	62.11011303	62.05394872	62.10176343	71.08396275	70.99503207	71.05707118	89.0677368	88.88238754	88.97781106
610	0.867931707	0.867924826	0.867935984	8.697225034	8.697307614	8.698422301	43.82411275	43.80455183	43.83206227	61.53865605	61.47736645	61.53066692	70.42049617	70.32584716	70.3949775	88.21367151	88.02238238	88.12864105
615	0.860862708	0.860854006	0.860866263	8.625256217	8.625159754	8.626383653	43.43699698	43.41430606	43.44445288	60.97879829	60.91278918	60.97114988	69.7708447	69.67095585	69.74662157	87.37824392	87.18159743	87.29782629
620	0.853908146	0.85389774	0.853911017	8.554490597	8.554226698	8.555551872	43.05722674	43.03163691	43.06421717	60.43015497	60.35980835	60.42283065	69.13453523	69.02985669	69.11153768	86.56077872	86.3593225	86.48471384
625	0.847065255	0.84705326	0.847067483	8.484897616	8.48447728	8.485896207	42.68457826	42.65630747	42.69112992	59.8923595	59.81803497	59.88534415	68.51111773	68.40207301	68.48928089	85.76063547	85.55488436	85.68868126
630	0.840331364	0.840317885	0.840332982	8.416447766	8.415881416	8.417386916	42.31883742	42.28809121	42.32497447	59.36506225	59.28709843	59.35833996	67.90016376	67.78715135	67.87942457	84.97720627	84.76764426	84.90913279
635	0.833703881	0.83368902	0.833704924	8.349112545	8.348410056	8.349995242	41.95979914	41.9267714	41.96554248	58.84792966	58.76664536	58.84148195	67.30126514	67.18466	67.28155994	84.2099136	83.9969957	84.14549869
640	0.8271803	0.827164153	0.827180797	8.282864412	8.282035139	8.283693413	41.60726694	41.57214056	41.61263463	58.34064315	58.25633859	58.33444961	66.71403269	66.59418764	66.69529777	83.45820837	83.24236228	83.39723779
645	0.820758191	0.820740849	0.820758171	8.217676744	8.216729552	8.218454655	41.26105245	41.22399993	41.2660615	57.84289833	57.75585623	57.83693981	66.13809508	66.01534215	66.12027065	82.7215681	82.50319582	82.66384107
650	0.8144352	0.81441675	0.814434691	8.153523799	8.152467085	8.154253179	40.92097496	40.88215903	40.92564366	57.35440415	57.26489073	57.34866704	65.5730978	65.44774938	65.55613341	81.99949522	81.77897453	81.94483216
655	0.808209046	0.808189569	0.808208075	8.090380679	8.089222398	8.091064099	40.58686105	40.54643522	40.59121032	56.87488213	56.78314808	56.86936075	65.01870209	64.89105215	65.00255955	81.29151554	81.06920146	81.23976198
660	0.802077516	0.80205709	0.802076111	8.028223297	8.026970984	8.028863299	40.25854415	40.21665323	40.26259644	56.40406567	56.31034704	56.39875988	64.47458411	64.34490922	64.45923424	80.59717682	80.37340287	80.54819804
665	0.796038465	0.796017165	0.796036653	7.967028338	7.965689131	7.967627294	39.93586426	39.89264482	39.93963986	55.94169935	55.84621841	55.93660738	63.94043405	63.8089944	63.92584722	79.91604747	79.69112693	79.86971353
