 TITLE = "PR density_T" 

  VARIABLES = Temperature	PR_cp_01	NIST_cp_01	PR_cp_1	NIST_cp_1	PR_cp_3	NIST_cp_3	PR_cp_5	NIST_cp_5	PR_cp_7	NIST_cp_7	PR_cp_10	NIST_cp_10
220	233.4086719	233.45	679.7935353	953.55	716.4232139	976.23	733.6099842	987.18	741.9682754	992.56	758.2656226	1003.1
230	238.2743196	238.38	627.8471601	879.82	667.5866636	906.23	685.9006363	918.81	694.7465596	924.97	711.8958489	937.02
240	243.013326	243.15	229.3558637	228.46	619.9311565	835.35	639.7407264	849.99	649.2185417	857.09	667.4514782	870.91
250	247.636146	247.79	235.4575365	235.08	572.7230031	762.21	594.5928596	779.62	604.9112848	787.97	624.5482215	804.05
260	252.1518524	252.31	241.253787	241.19	524.9064708	684.39	549.7905517	706.11	561.2737359	716.27	582.7825692	735.5
270	256.5683765	256.72	246.7881513	246.91	474.6066146	597.75	504.3785031	627.14	517.5819249	640.22	541.696421	664.15
280	260.8926992	261.03	252.0950962	252.33	417.1411039	495.52	456.6942272	539.49	472.7259217	557.45	500.7173017	588.67
290	265.1310016	265.25	257.202405	257.48	221.5349173	207.56	402.818648	435.61	424.6022999	462.96	459.0435295	506.63
300	269.2887877	269.39	262.1328205	262.43	231.4918667	223.25	321.240213	281.1	367.495924	343.66	415.3971192	414.28
310	273.3709831	273.46	266.9052076	267.2	240.2867319	234.66	234.772401	212.29	259.4252889	194.28	367.4900192	307.04
320	277.3820168	277.45	271.5353974	271.8	248.2474272	244.08	242.5500017	228.16	246.0710036	219.8	312.9801289	219.14
330	281.3258883	281.37	276.0368117	276.28	255.5683689	252.3	250.3607891	239.8	251.4169476	233.83	276.1673163	225.91
340	285.206224	285.24	280.4209331	280.62	262.3778593	259.68	257.7728354	249.45	258.0319929	244.79	269.7295493	238.14
350	289.0263236	289.04	284.6976658	284.86	268.7664539	266.45	264.7566644	257.89	264.7160494	254.1	271.6665579	248.62
360	292.7892006	292.79	288.8756159	289	274.8011201	272.74	271.3472414	265.47	271.2074239	262.32	275.9339419	257.77
370	296.4976158	296.49	292.9623111	293.05	280.5331222	278.64	277.5886668	272.42	277.4427263	269.78	280.9811119	265.97
380	300.1541059	300.13	296.9643763	297.02	286.0027672	284.23	283.5221043	278.88	283.4162476	276.65	286.2743686	273.47
390	303.7610085	303.73	300.8876745	300.91	291.2424319	289.55	289.1833715	284.94	289.1409176	283.05	291.5966609	280.4
400	307.3204838	307.28	304.7374212	304.72	296.2785833	294.63	294.6030142	290.66	294.6352505	289.07	296.8521235	286.88
410	310.8345324	310.79	308.5182777	308.47	301.1331771	299.52	299.8069855	296.11	299.9185611	294.76	301.9977052	292.99
420	314.3050122	314.25	312.2344288	312.16	305.8246552	304.24	304.8173908	301.31	305.0091837	300.19	307.0153749	298.77
430	317.7336518	317.68	315.8896467	315.79	310.3686765	308.79	309.6531516	306.3	309.9238723	305.37	311.8995786	304.28
440	321.1220637	321.06	319.4873447	319.37	314.7786617	313.21	314.3305592	311.11	314.6776816	310.36	316.651138	309.55
450	324.4717544	324.41	323.0306225	322.89	319.0662093	317.5	318.8637251	315.75	319.2840426	315.15	321.2741181	314.6
460	327.7841347	327.72	326.5223047	326.37	323.241417	321.68	323.2649449	320.24	323.7549091	319.79	325.7741569	319.48
470	331.0605279	330.99	329.9649732	329.79	327.3131345	325.75	327.5449926	324.61	328.1009216	324.28	330.1575532	324.18
480	334.3021774	334.24	333.360995	333.18	331.2891635	329.73	331.7133591	328.85	332.3315661	328.64	334.4307634	328.74
490	337.5102539	337.44	336.7125466	336.52	335.1764198	333.62	335.7784468	332.98	336.4553187	332.88	338.600126	333.16
500	340.6858609	340.62	340.0216346	339.81	338.9810638	337.43	339.7477288	337.01	340.4797735	337	342.6717154	337.45
510	343.8300406	343.77	343.2901134	343.07	342.7086084	341.16	343.6278809	340.94	344.4117538	341.03	346.6512707	341.63
520	346.9437787	346.88	346.5197013	346.3	346.3640072	344.82	347.4248905	344.79	348.257408	344.97	350.5441665	345.71
530	350.0280086	349.97	349.711994	349.48	349.9517292	348.42	351.1441483	348.56	352.0222929	348.81	354.3554101	349.69
540	353.0836159	353.03	352.8684768	352.64	353.4758203	351.95	354.7905246	352.26	355.7114448	352.58	358.0896518	353.58
550	356.1114415	356.06	355.990535	355.76	356.939956	355.43	358.3684348	355.89	359.3294412	356.28	361.7512027	357.39
560	359.1122852	359.06	359.0794634	358.84	360.3474857	358.85	361.8818938	359.45	362.8804532	359.9	365.3440565	361.12
570	362.0869089	362.04	362.1364744	361.9	363.7014706	362.22	365.3345635	362.95	366.3682921	363.46	368.8719126	364.78
580	365.0360386	364.99	365.1627058	364.93	367.0047169	365.54	368.7297933	366.39	369.7964488	366.96	372.3381986	368.37
590	367.9603679	367.92	368.159227	367.93	370.2598031	368.81	372.0706546	369.78	373.1681283	370.4	375.7460926	371.9
600	370.8605595	370.83	371.1270449	370.9	373.469105	372.04	375.3599709	373.12	376.4862803	373.78	379.0985441	375.37
610	373.7372477	373.71	374.0671095	373.84	376.6348167	375.23	378.6003445	376.41	379.753625	377.12	382.398293	378.78
620	376.59104	376.57	376.9803182	376.76	379.7589691	378.38	381.7941787	379.65	382.9726769	380.4	385.6478875	382.13
630	379.4225195	379.4	379.8675203	379.65	382.8434462	381.48	384.9436984	382.85	386.1457644	383.64	388.8497006	385.44
640	382.2322459	382.22	382.7295211	382.51	385.8899993	384.56	388.0509674	386	389.2750485	386.83	392.0059449	388.7
650	385.0207573	385.01	385.5670846	385.36	388.9002597	387.59	391.1179038	389.12	392.3625385	389.98	395.1186861	391.91
660	387.7885715	387.79	388.3809377	388.18	391.87575	390.6	394.146294	392.2	395.4101057	393.1	398.1898551	395.08
670	390.5361877	390.54	391.1717722	390.98	394.8178938	393.57	397.1378049	395.24	398.4194966	396.17	401.2212598	398.21
680	393.2640869	393.27	393.9402479	393.75	397.7280246	396.51	400.0939942	398.25	401.3923436	399.21	404.2145946	401.3
690	395.9727339	395.99	396.6869947	396.51	400.6073937	399.42	403.0163207	401.22	404.3301752	402.21	407.17145	404.35
700	398.6625778	398.68	399.4126152	399.24	403.4571776	402.3	405.9061527	404.16	407.2344249	405.18	410.093321	407.36
710	401.334053	401.36	402.1176861	401.95	406.2784837	405.15	408.7647756	407.07	410.1064395	408.11	412.9816143	410.34
720	403.9875806	404.02	404.8027606	404.65	409.0723565	407.98	411.593399	409.95	412.9474859	411.01	415.8376558	413.28
730	406.6235685	406.66	407.4683697	407.32	411.8397829	410.78	414.393163	412.8	415.7587579	413.89	418.6626965	416.2
740	409.2424127	409.28	410.1150238	409.97	414.5816961	413.55	417.1651436	415.63	418.5413824	416.73	421.4579186	419.08
750	411.8444981	411.89	412.7432145	412.61	417.2989809	416.31	419.9103584	418.43	421.296424	419.55	424.2244402	421.93
760	414.4301987	414.48	415.3534154	415.23	419.9924765	419.03	422.6297706	421.2	424.0248907	422.34	426.9633207	424.76
770	416.999879	417.05	417.9460837	417.83	422.6629807	421.74	425.3242935	423.94	426.7277376	425.11	429.6755649	427.55
780	419.5538939	419.61	420.521661	420.42	425.3112526	424.42	427.9947943	426.67	429.4058714	427.85	432.3621269	430.32
790	422.0925897	422.16	423.0805747	422.99	427.9380161	427.08	430.6420979	429.37	432.0601539	430.56	435.0239143	433.07
800	424.6163045	424.68	425.6232389	425.54	430.5439619	429.72	433.2669895	432.04	434.6914052	433.26	437.6617907	435.79
